ANGLE           1-2COS(G)       2+SIN(2G)       1+2COS(G)-3SIN(G)^2
 0              -0.99            2               3
 15             -0.92            2.5             2.73
 30             -0.72            2.87            1.98
 45             -0.4             3               0.91
 60              0               2.87           -0.24
 75              0.48            2.5            -1.27
 90              1               2              -1.99
 105             1.52            1.5            -2.31
 120             2               1.13           -2.24
 135             2.41            1              -1.9
 150             2.73            1.13           -1.47
 165             2.93            1.5            -1.12
 180             3               2              -0.99
 195             2.93            2.5            -1.12
 210             2.73            2.87           -1.47
 225             2.41            3              -1.9
 240             2               2.87           -2.24
 255             1.52            2.5            -2.31
 270             1               2              -1.99
 285             0.48            1.5            -1.27
 300             0               1.13           -0.24
 315            -0.4             1               0.91
 330            -0.72            1.13            1.98
 345            -0.92            1.5             2.73
 360            -0.99            2               3
STOP in line 90

5 (1) LET K = 3.14159 / 180
10 (1) PRINT "ANGLE", "1-2COS(G)", "2+SIN(2G)", "1+2COS(G)-3SIN(G)^2"
20 FNR(_) (0) DEF FNR(X) = INT(X * 100 + .5) / 100
30 FNA(_) (0) DEF FNA(X) = 1 - 2 * COS(K * X)
40 FNB(_) (0) DEF FNB(X) = 2 + SIN(2 * K * X)
50 FNC(_) (0) DEF FNC(X) = 1 + 2 * COS(K * X) - 3 * SIN(K * X) ^ 2
60 F(G) (1) FOR G = 0 TO 360 STEP 15
70 F(G) (25) PRINT G, FNR(FNA(G)), FNR(FNB(G)), FNR(FNC(G))
80 F(G) (25) NEXT G
90 (1) END

